"fluorescence"
2.76
2.65
2.68
2.48
2.37
2.47
1.61
1.51
1.67
2.1
2.37
2.7
2.77
2.53
2.54
2.35
1.99
1.1
1.59
1.09
2.01
1.47
1.1
1.34
2.01
2.14
2.18
2.61
2.62
2.04
2.08
1.45
1.1
1.07
0.98
0.82
1.22
0.98
1.34
1.92
1.85
2.06
1.65
1.46
0.96
1.6
1.23
1.47
1.13
1.21
1.24
0.95
0.67
1.15
1.21
1.09
0.94
1.01
1.01
1.13
1.12
0.99
0.9
1.01
1.26
1.07
0.75
1.06
0.7
1.13
1.16
1.14
1.08
1.66
1.88
1.45
1.2
1.18
1.19
1.12
1.12
1.49
1.27
1.02
1
0.8
0.9
1.08
1.12
1.68
1.74
1.67
1.9
1.86
2.65
2.3
2.09
1.98
1.57
1.61
1.44
1.4
1.35
2.17
2.23
2.11
1.9
1.9
1.66
1.74
2.05
2.16
1.91
2.11
2.32
2.2
1.71
1.73
1.61
1.19
1.64
1.32
1.32
1.08
1.28
1.68
1.25
1.76
1.85
1.74
1.85
1.72
1.89
1.97
2.08
1.91
1.02
1.35
1.62
1.36
1.4
1.24
1.28
1.31
1.26
1.2
1.78
1.73
1.75
1.64
1.35
1.32
1.11
1.23
1.32
1.22
1.06
1.14
0.97
0.95
0.85
0.68
0.69
0.7
0.73
1.29
0.98
0.8
0.92
0.84
0.77
0.75
0.69
0.63
0.7
0.63
0.67
0.53
0.58
0.61
0.85
1.03
0.73
0.67
0.66
0.66
0.56
0.62
0.62
0.66
0.57
0.91
0.71
0.66
1.07
1.04
0.94
0.92
1.02
0.92
0.94
1.17
1.11
1.26
1.2
1.19
1.44
1.23
1.23
1.07
1.03
0.88
0.97
0.93
1.1
0.98
1.02
0.98
1.13
1.06
1.35
1.89
1.76
1.91
1.05
1.21
1.36
1.04
1.44
1.22
1.34
1.5
1.48
2.17
1.96
1.68
1.5
1.46
1.27
1.29
1.18
1.12
1.07
1.08
1.15
1.13
1.13
0.98
0.92
1
1.03
0.96
1
1.22
1.39
1.33
1.48
1.62
1.22
1.08
1.16
1.16
1.12
1.09
1.06
1.4
1.28
1.12
1.15
0.95
0.94
0.94
1.02
0.99
1.04
0.86
0.94
1.24
1.12
1.21
1.32
1.25
1.13
0.99
1.11
1.25
0.94
1.14
1.39
1.33
1.05
0.99
0.96
0.98
0.91
0.93
0.9
0.7
0.64
1.25
0.87
1.32
0.69
1.14
1.15
1.12
1.08
1.11
1.07
1
0.96
0.94
0.87
0.86
0.8
0.98
0.68
0.61
0.49
0.6
0.73
0.6
0.74
0.8
0.82
0.76
0.75
1.08
1.59
1.03
1.16
1.1
1.13
0.86
1.15
1.56
1.8
1.27
1.31
1.41
1.26
1.67
1.6
1.66
1.94
1.41
1.8
1.65
1.51
1.64
1.3
1.4
1.23
1.21
1.42
1.39
1.34
1.45
1.46
1.62
1.59
1.43
1.58
1.56
1.44
1.36
1.48
1.32
1.3
0.92
0.97
0.97
1.33
1.05
0.74
1.19
1.23
1.53
1.6
1.49
1.4
1.24
1.3
1.05
0.98
1
0.92
0.92
1.09
1.24
1.06
0.79
0.84
0.95
1.11
0.91
0.79
0.73
0.67
0.55
0.69
0.62
0.85
1.08
0.97
0.77
0.68
0.72
0.74
0.57
0.6
0.69
0.56
0.68
0.72
0.83
0.92
0.96
1.19
1.24
1.17
1.14
0.94
0.87
0.84
0.88
0.91
1.05
0.95
0.94
0.97
0.98
1.25
1.14
0.96
1.25
1.31
0.9
1.3
1.2
1.03
0.98
1.12
0.95
1.33
1.48
1.34
1.48
1.29
1.31
1.09
1.09
1.04
1.19
0.99
1.2
0.97
1.34
1.2
1.06
1.11
0.87
1.01
0.87
0.84
0.7
0.7
0.69
0.71
0.72
0.87
0.87
0.9
0.97
0.86
0.91
0.99
0.88
0.79
0.61
0.83
0.76
0.65
0.76
0.69
0.58
0.84
0.83
0.78
0.78
0.75
0.76
0.76
0.52
0.59
0.63
0.51
0.57
0.55
0.42
0.43
0.35
0.55
0.5
0.39
0.57
0.76
0.81
0.75
0.75
0.7
0.79
0.82
0.75
0.8
0.77
0.63
0.64
0.97
0.92
0.97
1.07
1.06
0.96
0.84
0.92
0.87
0.32
0.47
0.48
0.57
0.6
0.64
0.77
0.77
0.93
0.76
0.81
0.63
0.58
0.79
0.86
0.74
0.86
0.94
1.26
1.24
0.97
1.09
1.02
1.05
1.02
0.97
1.03
1
1.08
1.23
1.12
1.02
0.98
0.93
1.13
0.96
1
0.99
1.12
1.15
1.35
1.2
1.2
1.27
1.12
1.14
0.99
1
0.96
0.65
0.61
0.61
0.65
0.87
1.3
1.69
1.44
1.67
1.33
1.34
1.16
1.14
1.18
1.04
1.02
1.13
1.03
1.14
1.04
0.93
0.9
1.01
0.92
0.94
0.92
0.91
0.9
0.74
0.89
1.36
1.28
1.1
0.92
1.07
0.87
0.99
1.11
1.22
1.15
1.09
1
0.83
1.15
2.02
1.82
1.59
1.34
0.85
1
1.43
1.32
1.26
1.71
1.37
1.94
1.88
1.7
1.53
1.33
1.26
1.44
1.33
1.13
1.33
1.32
1.19
1.15
1.1
1.35
1.01
0.94
1
1.33
1.38
1.04
1.05
1.39
1.35
1.22
1.24
1.15
1.14
1.07
0.95
1.04
0.82
1.19
0.97
1.15
1.1
0.95
0.84
1.04
1.1
1.1
1.02
1.13
1.24
1.07
0.99
0.99
1.01
1.02
0.96
0.94
0.94
0.92
0.73
1.14
1.06
0.86
0.95
0.95
1.21
1.26
1.22
1.01
0.93
0.81
1.04
0.7
0.6
0.61
0.53
0.57
0.58
0.89
0.74
0.8
0.74
0.8
0.88
0.82
0.77
0.76
0.76
0.86
0.67
0.7
0.48
0.44
0.38
0.65
0.68
0.69
0.87
0.85
0.55
0.55
0.51
0.8
0.62
0.44
0.68
0.49
0.46
0.49
0.35
0.33
0.34
0.33
0.37
0.42
0.39
0.49
0.42
0.44
0.42
0.37
0.4
0.45
0.6
0.58
0.37
0.56
0.55
0.5
0.51
0.62
0.59
0.34
0.47
0.4
0.38
0.47
0.52
0.56
0.54
0.52
0.45
0.41
0.49
0.55
0.62
0.73
0.57
0.61
0.57
0.46
0.6
0.52
0.47
0.49
0.66
0.62
0.59
0.58
0.63
0.56
0.51
0.58
0.57
0.48
0.44
0.48
0.37
0.45
0.45
0.48
0.59
0.57
0.58
0.67
0.59
0.68
0.33
0.51
0.39
0.62
0.52
0.81
0.49
0.44
0.78
0.76
0.56
0.63
0.88
0.98
0.98
1
0.74
0.73
0.64
0.51
0.5
0.58
0.65
0.86
0.81
0.87
0.92
0.74
0.95
1
0.81
0.91
0.91
1.01
1
0.73
0.82
0.81
0.9
0.89
0.84
0.71
0.74
0.67
0.69
0.66
0.71
0.76
0.57
0.74
0.7
0.64
0.61
0.67
0.68
0.59
0.68
0.63
0.72
0.77
0.71
0.73
0.74
0.65
0.72
0.76
0.72
0.98
0.83
0.86
0.88
0.93
0.93
0.84
0.79
0.76
0.85
0.84
0.67
0.74
0.73
0.84
0.8
0.84
0.74
0.69
0.61
0.57
0.73
0.89
1.09
0.85
0.9
0.94
0.99
0.98
0.86
0.95
1
1.08
1.1
1.25
0.39
0.33
0.35
0.38
0.37
0.3
0.32
0.32
0.3
0.3
0.31
0.28
0.26
0.28
0.27
0.32
0.27
0.27
0.31
0.27
0.25
0.25
0.24
0.25
0.25
0.24
0.21
0.27
0.22
0.21
0.22
0.22
0.21
0.21
0.22
0.21
0.18
0.21
0.19
0.2
0.21
0.23
0.21
0.23
0.22
0.23
0.2
0.23
0.21
0.26
0.23
0.21
0.23
0.2
0.23
0.21
0.2
0.22
0.24
0.23
0.25
0.28
0.27
0.24
0.27
0.25
0.24
0.26
0.28
0.27
0.23
0.29
0.29
0.28
0.3
0.31
0.32
0.28
0.28
0.33
0.34
0.33
0.32
0.33
0.31
0.38
0.32
0.36
0.38
0.33
0.35
0.33
0.36
0.31
0.37
0.38
0.37
0.35
0.37
0.34
0.36
0.35
0.36
0.39
0.34
0.29
0.32
0.34
0.32
0.32
0.29
0.33
0.3
0.3
0.32
0.26
0.24
0.23
0.27
0.29
0.3
0.24
0.28
0.28
0.25
0.25
0.25
0.26
0.27
0.24
0.27
0.22
0.24
0.25
0.28
0.27
0.26
0.29
0.29
0.29
0.28
0.26
0.28
0.31
0.3
0.28
0.26
0.3
0.25
0.26
0.27
0.25
0.22
0.24
0.28
0.25
0.23
0.24
0.25
0.2
0.24
0.23
0.26
0.3
0.26
0.33
0.27
0.28
0.27
0.31
0.33
0.31
0.34
0.32
0.31
0.33
0.28
0.33
0.32
0.3
0.31
0.34
0.34
0.31
0.31
0.25
0.27
0.31
0.27
0.3
0.27
0.28
0.25
0.25
0.28
0.27
0.27
0.23
0.26
0.24
0.26
0.25
0.26
0.26
0.23
0.26
0.24
0.26
0.23
0.25
0.23
0.27
0.27
0.3
0.25
0.28
0.26
0.29
0.3
0.25
0.27
0.25
0.31
0.27
0.26
0.38
0.27
0.28
0.41
0.38
0.4
0.43
0.45
0.5
0.53
0.45
0.5
0.43
0.65
0.69
0.57
0.64
0.69
0.49
0.43
0.4
0.46
0.36
0.62
0.55
0.55
0.62
0.5
0.35
0.61
0.63
0.61
0.52
0.52
0.56
0.29
0.3
0.3
0.24
0.53
0.66
0.7
0.53
0.48
0.41
0.37
0.48
0.57
0.5
0.49
0.48
0.41
0.41
0.67
0.62
0.61
0.6
0.57
0.57
0.58
0.54
0.55
0.8
0.64
0.56
0.56
0.7
0.68
0.73
0.84
0.67
0.67
0.59
0.69
0.65
0.75
0.62
0.67
0.61
0.53
0.52
0.59
0.57
0.62
0.61
0.62
0.61
0.55
0.65
0.61
0.64
0.62
0.53
0.68
0.69
0.65
0.73
1.01
0.77
0.73
0.83
1.03
0.91
0.79
0.5
0.65
0.84
0.94
0.89
0.78
0.9
0.96
0.94
0.84
0.92
0.78
0.64
0.56
1
0.85
0.83
0.78
0.81
0.87
0.58
0.81
0.94
0.86
0.92
0.8
0.68
0.92
1.17
1.16
1.04
0.89
0.85
0.86
0.84
0.85
0.76
0.76
1.21
1.21
1.29
1.16
1.13
1.01
1.41
0.93
0.89
0.87
1.26
1.14
1.14
1.19
1.17
1.2
1.51
2.14
2.08
1.34
0.75
0.7
0.63
1.11
1.11
1.12
0.83
0.75
0.89
0.82
0.81
0.75
0.7
0.74
0.72
1.07
0.72
0.71
0.83
0.8
0.75
0.74
0.69
0.61
0.56
1.13
1.15
1.21
1.32
1.28
1.17
1.14
1.09
1.21
1.03
1.04
0.95
0.91
1.09
1.25
1.31
1.62
1.13
1.06
1.49
1.15
1.12
1.21
1.15
1
0.86
1.12
0.82
0.97
0.75
0.92
0.69
1.65
1.42
0.94
0.94
0.79
0.97
0.97
1.02
0.89
0.94
1.07
1.05
1.18
1.08
0.98
1.34
1.76
1.94
1.62
1.44
0.6
0.5
0.65
0.48
0.6
0.46
0.5
1.28
1.73
0.73
0.69
0.99
0.62
0.68
1.08
1.57
1.09
1.22
1.38
1.2
0.97
1.01
1.43
0.83
1.02
1.04
0.89
0.93
1.14
1.09
1.08
0.95
2.25
1.29
1.09
1.33
1.41
1.43
1.33
1.6
1.73
1.53
1.74
1.97
1.19
1.12
1.83
1.76
1.85
1.67
1.38
1.42
1.38
1.48
1.5
1.71
1.45
1.52
1.35
1.4
1.07
1.18
0.98
1.06
0.98
1.22
1.23
1.39
0.9
0.96
0.9
1.02
0.89
1.03
0.89
0.97
0.8
0.93
0.62
0.66
0.73
0.73
0.71
0.71
0.85
0.71
0.87
0.66
0.67
0.58
0.67
0.5
0.52
0.44
0.61
0.48
0.74
0.87
0.61
0.56
0.55
1.07
0.77
0.75
0.67
0.74
0.59
0.74
0.65
0.75
0.83
0.83
0.8
0.88
0.87
0.9
0.88
0.87
0.85
0.83
0.85
1.16
1.22
1.15
1.1
1.19
1.13
0.9
0.91
0.82
0.84
1.1
1.19
0.87
0.81
1.09
0.82
1.03
1.15
0.98
0.93
0.87
0.9
0.72
0.75
0.91
0.81
0.74
0.91
1.4
1.39
1.39
1.32
1.22
1.42
1.15
1.57
1.56
1.45
1.88
1.78
1.53
1.39
1.42
1.27
3.32
3.47
3.55
3.83
4.11
2.76
2.71
2.83
3.01
0.48
0.49
0.44
0.5
0.35
0.39
0.38
0.34
0.37
0.31
0.44
0.4
0.49
0.48
0.63
0.51
0.63
0.65
0.68
0.75
0.52
0.53
0.58
0.63
0.56
0.63
0.68
0.66
0.66
0.69
0.67
0.67
0.65
0.57
0.62
0.55
0.56
0.59
0.52
0.52
0.41
0.47
0.49
0.55
0.56
0.64
0.68
0.4
0.23
0.24
0.25
0.28
0.27
0.3
0.33
0.31
0.31
0.31
0.32
0.3
0.35
0.32
0.28
0.36
0.35
0.36
0.38
0.4
0.37
0.34
0.35
0.31
0.34
0.36
0.32
0.32
0.31
0.42
0.41
0.45
0.46
3.39
3.09
3.15
2.07
1.83
1.99
1.82
1.44
1.73
1.39
0.24
0.4
0.4
0.26
0.27
0.28
0.52
0.68
0.6
0.74
0.6
0.52
0.57
0.77
0.69
0.63
0.74
0.61
0.5
0.52
0.47
0.51
0.54
0.52
0.59
0.51
0.55
0.47
0.44
0.62
0.49
1.04
1.52
1.22
1
0.79
1.21
1.57
1.75
1.77
1.83
1.7
1.95
1
1.19
1.09
1.65
1.08
1.57
1.5
1.29
1.21
1.17
1.13
1.06
0.86
1.43
2.19
2.15
2.4
2.32
1.93
2.89
0.72
0.87
0.5
0.78
0.8
0.82
0.77
0.82
0.96
0.08
0.76
0.77
0
0
0
0
0.26
1.37
1.4
1.51
1.42
1.45
1.03
0.99
0.73
1.02
0.85
0.37
0.77
0.69
0.58
0.99
0
0
3.15
